"V1"
-0.267
-0.303
4.108
2.189
-3.834
-1.431
1.76
0.246
-1.013
-0.133
-1.319
0.911
1.105
1.479
0.504
-1.326
-1.317
2.318
-0.443
-0.778
1.076
0.589
0.902
-0.876
-0.911
0.212
1.432
0.512
0.161
0.333
-0.721
-0.23
-1.23
0.81
0.311
0.137
-0.157
0.52
-0.697
-1.82
-0.527
-0.224
-0.321
-0.397
0.985
-0.319
-0.311
0.565
-0.298
-0.306
1.294
-0.029
0.467
-1.318
0.628
0.698
-0.044
-0.61
0.835
0.715
0.266
-0.524
0.216
0.158
0.688
0.789
0.576
-1.174
0.147
-0.558
-0.704
-0.086
-0.136
0.257
0.684
0.292
-1.083
0.357
-0.314
-0.463
-0.081
0.095
-0.159
0.245
-0.348
0.177
0.25
0.85
0.145
0.11
-0.473
-0.692
0.346
0.443
0.002
-0.313
-0.008
-0.087
-0.333
-0.814
0
-0.6
0.253
0.137
0.601
-0.414
0.784
-0.141
-0.412
-0.84
0.728
-0.028
-0.127
-0.704
-0.02
0.684
0.219
-0.279
-0.189
-0.095
-0.302
-0.152
-0.593
-0.104
-0.193
-0.441
0.043
0.268
0.3
0.14
0.38
0.001
-0.232
0.255
0.032
-0.166
-0.353
-0.219
0.066
0.127
0.182
-0.161
-0.807
-0.102
-0.044
0.29
-0.036
-0.078
-0.425
-0.037
0.263
-0.203
-0.255
-0.033
-0.059
-0.026
-0.164
0.004
-0.135
-0.267
0.153
-0.054
0.128
0.143
-0.115
0.137
0.33
0.364
-0.473
0.051
0.08
0.298
-0.022
-0.049
-0.071
-0.165
-0.453
0.346
-0.259
0.274
-0.347
-0.036
-0.401
-0.828
-0.14
0.221
-0.394
-0.145
0.053
-0.352
0.155
-0.052
0.134
-0.158
0.352
0.048
0.227
0.112
-0.502
-0.182
0.026
0.11
-0.204
-0.109
-0.159
-0.051
0.186
-0.145
-0.267
-0.053
-0.017
0.761
0.022
-0.455
0.164
0.134
-0.135
-0.26
0.093
0.26
-0.005
0.224
0.278
-0.028
-0.301
-0.008
-0.017
0.237
0.048
0.243
0.095
0.083
0.07
0.085
0.026
0.183
0.33
-0.066
-0.149
-0.063
-0.072
0.24
0.225
-0.147
0.068
0.016
0.416
-0.049
-0.019
0.423
0.316
-0.079
-0.169
0.213
-0.065
-0.074
0.156
-0.114
-0.258
-0.436
-0.065
-0.074
-0.259
0.108
-0.169
-0.029
0.108
0.009
0.026
